3
244
244
245
243
243
243
244
243
244
244
244
251
256
257
255
252
244
241
243
248
254
260
264
267
270
264
261
258
252
242
242
243
245
245
244
244
246
245
245
245
245
245
246
244
244
246
245
244
245
244
244
244
244
244
244
244
242
244
245
244
244
243
244
245
244
244
245
245
245
246
244
245
246
245
244
245
246
244
245
245
244
244
245
243
244
245
244
244
244
244
245
244
243
244
245
244
244
245
244
245
245
244
244
246
244
244
245
245
244
245
244
245
246
245
245
245
245
244
244
243
244
245
244
244
244
245
244
244
243
244
246
245
241
244
244
244
245
244
244
245
245
245
245
246
245
245
245
244
244
245
244
244
246
244
244
242
240
241
240
240
240
240
240
240
241
240
240
241
240
240
240
240
240
240
240
241
240
244
245
245
245
245
245
244
246
244
244
245
245
245
244
244
244
244
246
244
246
244
244
245
244
245
246
243
244
246
244
244
245
244
246
244
215
177
162
205
255
254
250
247
246
244
243
245
243
244
244
244
244
244
242
243
246
244
243
243
244
243
244
243
243
245
243
243
244
244
243
244
243
244
245
243
240
243
245
243
244
244
243
244
244
244
244
246
244
244
245
244
244
244
243
244
245
244
244
245
244
244
244
244
243
244
243
244
244
243
244
244
244
243
245
243
244
244
244
244
244
244
244
246
244
244
245
244
244
244
244
244
244
244
244
244
244
244
244
244
243
243
245
243
243
246
244
244
244
244
244
245
244
244
245
244
244
244
242
240
240
240
240
240
239
275
291
290
279
264
242
232
235
237
238
239
240
240
240
241
241
241
241
241
240
240
240
240
240
240
240
240
240
240
241
240
241
240
240
239
240
242
240
240
240
240
240
240
240
240
240
240
241
240
240
240
240
241
240
240
240
241
240
240
240
239
239
240
240
241
241
239
239
240
240
240
240
240
240
240
240
241
240
241
241
240
240
241
241
241
240
241
240
240
240
240
240
240
240
240
240
240
240
240
240
240
239
240
240
240
240
240
240
240
240
240
240
240
241
240
240
240
240
240
240
234
215
207
208
216
224
233
240
244
244
241
238
235
234
234
236
234
236
238
238
236
236
235
239
240
240
240
240
240
240
245
243
243
244
244
245
243
243
243
244
243
244
244
244
251
256
257
255
252
244
241
243
248
254
260
264
267
270
264
261
258
252
242
242
243
245
245
244
244
246
245
245
245
245
245
246
244
244
246
245
244
245
244
244
244
244
244
244
244
242
244
245
244
244
243
244
245
244
244
245
245
245
246
244
245
246
245
244
245
246
244
245
245
244
244
245
243
244
245
244
244
244
244
245
244
243
244
245
244
244
245
244
245
245
244
244
246
244
244
245
245
244
245
244
245
246
245
245
245
245
244
244
243
244
245
244
244
244
245
244
244
243
244
246
245
241
244
244
244
245
244
244
245
245
245
245
246
245
245
245
244
244
245
244
244
246
244
244
242
240
241
240
240
240
240
240
240
241
240
240
241
240
240
240
240
240
240
240
241
240
243
244
245
245
245
245
245
244
246
244
244
245
245
245
244
244
244
244
246
244
246
244
244
245
244
245
246
243
244
246
244
244
245
244
246
244
215
177
162
205
255
254
250
247
246
244
243
245
243
244
244
244
244
244
242
243
246
244
243
243
244
243
244
243
243
245
243
243
244
244
243
244
243
244
245
243
240
243
245
243
244
244
243
244
244
244
244
246
244
244
245
244
244
244
243
244
245
244
244
245
244
244
244
244
243
244
243
244
244
243
244
244
244
243
245
243
244
244
244
244
244
244
244
246
244
244
245
244
244
244
244
244
244
244
244
244
244
244
244
244
243
243
245
243
243
246
244
244
244
244
244
245
244
244
245
244
244
244
242
240
240
240
240
240
239
275
291
290
279
264
242
232
235
237
238
239
240
240
240
241
241
241
241
241
240
240
240
240
240
240
240
240
240
240
241
240
241
240
240
239
240
242
240
240
240
240
240
240
240
240
240
240
241
240
240
240
240
241
240
240
240
241
240
240
240
239
239
240
240
241
241
239
239
240
240
240
240
240
240
240
240
241
240
241
241
240
240
241
241
241
240
241
240
240
240
240
240
240
240
240
240
240
240
240
240
240
239
240
240
240
240
240
240
240
240
240
240
240
241
240
240
240
240
240
240
234
215
207
208
216
224
233
240
244
244
241
238
235
234
234
236
234
236
238
238
236
236
235
239
240
240
240
240
240
240
245
243
243
244
244
245
243
243
243
244
243
244
244
244
251
256
257
255
252
244
241
243
248
254
260
264
267
270
264
261
258
252
242
242
243
245
245
244
244
246
245
245
245
245
245
246
244
244
246
245
244
245
244
244
244
244
244
244
244
242
244
245
244
244
243
244
245
244
244
245
245
245
246
244
245
246
245
244
245
246
244
245
245
244
244
245
243
244
245
244
244
244
244
245
244
243
244
245
244
244
245
244
245
245
244
244
246
244
244
245
245
244
245
244
245
246
245
245
245
245
244
244
243
244
245
244
244
244
245
244
244
243
244
246
245
241
244
244
244
245
244
244
245
245
245
245
246
245
245
245
244
244
245
244
244
246
244
244
242
240
241
240
240
240
240
240
240
241
240
240
241
240
240
240
240
240
240
240
241
240
243
246
244
245
245
245
245
245
244
246
244
244
245
245
245
244
244
244
244
246
244
246
244
244
245
244
245
246
243
244
246
244
244
245
244
246
244
215
177
162
205
255
254
250
247
246
244
243
245
243
244
244
244
244
244
242
243
246
244
243
243
244
243
244
243
243
245
243
243
244
244
243
244
243
244
245
243
240
243
245
243
244
244
243
244
244
244
244
246
244
244
245
244
244
244
243
244
245
244
244
245
244
244
244
244
243
244
243
244
244
243
244
244
244
243
245
243
244
244
244
244
244
244
244
246
244
244
245
244
244
244
244
244
244
244
244
244
244
244
244
244
243
243
245
243
243
246
244
244
244
244
244
245
244
244
245
244
244
244
242
240
240
240
240
240
239
275
291
290
279
264
242
232
235
237
238
239
240
240
240
241
241
241
241
241
240
240
240
240
240
240
240
240
240
240
241
240
241
240
240
239
240
242
240
240
240
240
240
240
240
240
240
240
241
240
240
240
240
241
240
240
240
241
240
240
240
239
239
240
240
241
241
239
239
240
240
240
240
240
240
240
240
241
240
241
241
240
240
241
241
241
240
241
240
240
240
240
240
240
240
240
240
240
240
240
240
240
239
240
240
240
240
240
240
240
240
240
240
240
241
240
240
240
240
240
240
234
215
207
208
216
224
233
240
244
244
241
238
235
234
234
236
234
236
238
238
236
236
235
239
240
240
240
240
240
240
245
243
243
244
244
245
243
243
243
244
243
244
244
244
251
256
257
255
252
244
241
243
248
254
260
264
267
270
264
261
258
252
242
242
243
245
245
244
244
246
245
245
245
245
245
246
244
244
246
245
244
245
244
244
244
244
244
244
244
242
244
245
244
244
243
244
245
244
244
245
245
245
246
244
245
246
245
244
245
246
244
245
245
244
244
245
243
244
245
244
244
244
244
245
244
243
244
245
244
244
245
244
245
245
244
244
246
244
244
245
245
244
245
244
245
246
245
245
245
245
244
244
243
244
245
244
244
244
245
244
244
243
244
246
245
241
244
244
244
245
244
244
245
245
245
245
246
245
245
245
244
244
245
244
244
246
244
244
242
240
241
240
240
240
240
240
240
241
240
240
241
240
240
240
240
240
240
240
241
240
243
246
247
244
245
245
245
245
245
244
246
244
244
245
245
245
244
244
244
244
246
244
246
244
244
245
244
245
246
243
244
246
244
244
245
244
246
244
215
177
162
205
255
254
250
247
246
244
243
245
243
244
244
244
244
244
242
243
246
244
243
243
244
243
244
243
243
245
243
243
244
244
243
244
243
244
245
243
240
243
245
243
244
244
243
244
244
244
244
246
244
244
245
244
244
244
243
244
245
244
244
245
244
244
244
244
243
244
243
244
244
243
244
244
244
243
245
243
244
244
244
244
244
244
244
246
244
244
245
244
244
244
244
244
244
244
244
244
244
244
244
244
243
243
245
243
243
246
244
244
244
244
244
245
244
244
245
244
244
244
242
240
240
240
240
240
239
275
291
290
279
264
242
232
235
237
238
239
240
240
240
241
241
241
241
241
240
240
240
240
240
240
240
240
240
240
241
240
241
240
240
239
240
242
240
240
240
240
240
240
240
240
240
240
241
240
240
240
240
241
240
240
240
241
240
240
240
239
239
240
240
241
241
239
239
240
240
240
240
240
240
240
240
241
240
241
241
240
240
241
241
241
240
241
240
240
240
240
240
240
240
240
240
240
240
240
240
240
239
240
240
240
240
240
240
240
240
240
240
240
241
240
240
240
240
240
240
234
215
207
208
216
224
233
240
244
244
241
238
235
234
234
236
234
236
238
238
236
236
235
239
240
240
240
240
240
240
245
243
243
244
244
245
243
243
243
244
243
244
244
244
251
256
257
255
252
244
241
243
248
254
260
264
267
270
264
261
258
252
242
242
243
245
245
244
244
246
245
245
245
245
245
246
244
244
246
245
244
245
244
244
244
244
244
244
244
242
244
245
244
244
243
244
245
244
244
245
245
245
246
244
245
246
245
244
245
246
244
245
245
244
244
245
243
244
245
244
244
244
244
245
244
243
244
245
244
244
245
244
245
245
244
244
246
244
244
245
245
244
245
244
245
246
245
245
245
245
244
244
243
244
245
244
244
244
245
244
244
243
244
246
245
241
244
244
244
245
244
244
245
245
245
245
246
245
245
245
244
244
245
244
244
246
244
244
242
240
241
240
240
240
240
240
240
241
240
240
241
240
240
240
240
240
240
240
241
240
243
246
247
239
244
245
245
245
245
245
244
246
244
244
245
245
245
244
244
244
244
246
244
246
244
244
245
244
245
246
243
244
246
244
244
245
244
246
244
215
177
162
205
255
254
250
247
246
244
243
245
243
244
244
244
244
244
242
243
246
244
243
243
244
243
244
243
243
245
243
243
244
244
243
244
243
244
245
243
240
243
245
243
244
244
243
244
244
244
244
246
244
244
245
244
244
244
243
244
245
244
244
245
244
244
244
244
243
244
243
244
244
243
244
244
244
243
245
243
244
244
244
244
244
244
244
246
244
244
245
244
244
244
244
244
244
244
244
244
244
244
244
244
243
243
245
243
243
246
244
244
244
244
244
245
244
244
245
244
244
244
242
240
240
240
240
240
239
275
291
290
279
264
242
232
235
237
238
239
240
240
240
241
241
241
241
241
240
240
240
240
240
240
240
240
240
240
241
240
241
240
240
239
240
242
240
240
240
240
240
240
240
240
240
240
241
240
240
240
240
241
240
240
240
241
240
240
240
239
239
240
240
241
241
239
239
240
240
240
240
240
240
240
240
241
240
241
241
240
240
241
241
241
240
241
240
240
240
240
240
240
240
240
240
240
240
240
240
240
239
240
240
240
240
240
240
240
240
240
240
240
241
240
240
240
240
240
240
234
215
207
208
216
224
233
240
244
244
241
238
235
234
234
236
234
236
238
238
236
236
235
239
240
240
240
240
240
240
245
243
243
244
244
245
243
243
243
244
243
244
244
244
251
256
257
255
252
244
241
243
248
254
260
264
267
270
264
261
258
252
242
242
243
245
245
244
244
246
245
245
245
245
245
246
244
244
246
245
244
245
244
244
244
244
244
244
244
242
244
245
244
244
243
244
245
244
244
245
245
245
246
244
245
246
245
244
245
246
244
245
245
244
244
245
243
244
245
244
244
244
244
245
244
243
244
245
244
244
245
244
245
245
244
244
246
244
244
245
245
244
245
244
245
246
245
245
245
245
244
244
243
244
245
244
244
244
245
244
244
243
244
246
245
241
244
244
244
245
244
244
245
245
245
245
246
245
245
245
244
244
245
244
244
246
244
244
242
240
241
240
240
240
240
240
240
241
240
240
241
240
240
240
240
240
240
240
241
240
243
246
247
239
238
238
242
241
245
246
245
247
243
242
241
241
239
240
245
242
245
243
243
240
241
243
242
240
243
240
241
244
242
243
242
243
244
241
244
246
241
246
245
240
241
241
245
242
243
244
242
241
241
243
240
242
245
244
246
243
241
237
233
238
237
236
239
245
246
252
249
241
238
239
235
239
241
247
247
246
245
243
240
240
241
237
240
243
244
247
245
243
239
235
239
239
239
243
245
243
243
243
241
242
236
240
240
240
242
245
243
247
247
242
239
235
237
239
240
245
246
244
243
243
239
241
242
243
245
244
242
242
243
241
241
236
240
240
240
244
247
242
241
241
240
244
242
244
245
242
242
240
240
244
242
242
248
248
247
245
238
238
237
238
240
245
243
245
246
245
244
239
239
239
238
244
246
242
243
243
240
240
240
244
242
238
242
243
242
243
243
237
238
239
239
243
247
243
245
245
247
243
239
239
241
242
245
248
241
241
240
238
242
241
244
244
244
245
245
241
240
241
238
241
242
243
247
242
243
242
239
239
241
238
244
248
246
245
239
237
236
235
240
242
243
245
246
244
244
241
240
242
237
242
243
243
245
247
243
241
239
237
240
243
240
244
245
244
244
241
241
239
237
241
244
242
244
245
242
241
240
239
243
240
247
246
241
241
240
234
237
238
239
244
245
247
245
242
242
243
238
239
241
241
243
244
243
243
237
240
241
241
241
245
242
245
245
244
242
244
237
238
240
241
246
244
244
242
238
240
241
238
241
245
245
246
243
239
239
233
239
243
242
243
247
243
244
244
246
243
241
241
240
241
243
246
242
242
241
238
241
240
243
242
240
244
243
239
239
240
238
240
243
243
246
242
243
239
235
237
241
240
243
242
241
244
244
239
239
239
238
241
242
244
243
240
243
242
239
240
242
240
242
244
243
244
238
241
240
239
240
243
241
245
246
243
244
240
239
239
238
243
248
243
243
243
240
244
245
247
246
236
239
240
238
238
239
235
240
241
241
243
241
245
246
248
246
245
241
240
237
236
240
242
242
242
243
240
241
242
242
245
241
244
241
237
237
239
238
242
244
243
247
243
244
241
239
239
242
238
241
244
244
246
246
242
237
234
238
241
240
244
247
244
243
241
239
238
242
241
245
246
245
247
243
242
241
241
239
240
245
242
245
243
243
240
241
243
242
240
243
240
241
244
242
243
242
243
244
241
244
246
241
246
245
240
241
241
245
242
243
244
242
241
241
243
240
242
245
244
246
243
241
237
233
238
237
236
239
245
246
252
249
241
238
239
235
239
241
247
247
246
245
243
240
240
241
237
240
243
244
247
245
243
239
235
239
239
239
243
245
243
243
243
241
242
236
240
240
240
242
245
243
247
247
242
239
235
237
239
240
245
246
244
243
243
239
241
242
243
245
244
242
242
243
241
241
236
240
240
240
244
247
242
241
241
240
244
242
244
245
242
242
240
240
244
242
242
248
248
247
245
238
238
237
238
240
245
243
245
246
245
244
239
239
239
238
244
246
242
243
243
240
240
240
244
242
238
242
243
242
243
243
237
238
239
239
243
247
243
245
245
247
243
239
239
241
242
245
248
241
241
240
238
242
241
244
244
244
245
245
241
240
241
238
241
242
243
247
242
243
242
239
239
241
238
244
248
246
245
239
237
236
235
240
242
243
245
246
244
244
241
240
242
237
242
243
243
245
247
243
241
239
237
240
243
240
244
245
244
244
241
241
239
237
241
244
242
244
245
242
241
240
239
243
240
247
246
241
241
240
234
237
238
239
244
245
247
245
242
242
243
238
239
241
241
243
244
243
243
237
240
241
241
241
245
242
245
245
244
242
244
237
238
240
241
246
244
244
242
238
240
241
238
241
245
245
246
243
239
239
233
239
243
242
243
247
243
244
244
246
243
241
241
240
241
243
246
242
242
241
238
241
240
243
242
240
244
243
239
239
240
238
240
243
243
246
242
243
239
235
237
241
240
243
242
241
244
244
239
239
239
238
241
242
244
243
240
243
242
239
240
242
240
242
244
243
244
238
241
240
239
240
243
241
245
246
243
244
240
239
239
238
243
248
243
243
243
240
244
245
247
246
236
239
240
238
238
239
235
240
241
241
243
241
245
246
248
246
245
241
240
237
236
240
242
242
242
243
240
241
242
242
245
241
244
241
237
237
239
238
242
244
243
247
243
244
241
239
239
242
238
241
244
244
246
246
242
237
234
238
241
240
244
247
244
243
241
239
238
238
242
241
245
246
245
247
243
242
241
241
239
240
245
242
245
243
243
240
241
243
242
240
243
240
241
244
242
243
242
243
244
241
244
246
241
246
245
240
241
241
245
242
243
244
242
241
241
243
240
242
245
244
246
243
241
237
233
238
237
236
239
245
246
252
249
241
238
239
235
239
241
247
247
246
245
243
240
240
241
237
240
243
244
247
245
243
239
235
239
239
239
243
245
243
243
243
241
242
236
240
240
240
242
245
243
247
247
242
239
235
237
239
240
245
246
244
243
243
239
241
242
243
245
244
242
242
243
241
241
236
240
240
240
244
247
242
241
241
240
244
242
244
245
242
242
240
240
244
242
242
248
248
247
245
238
238
237
238
240
245
243
245
246
245
244
239
239
239
238
244
246
242
243
243
240
240
240
244
242
238
242
243
242
243
243
237
238
239
239
243
247
243
245
245
247
243
239
239
241
242
245
248
241
241
240
238
242
241
244
244
244
245
245
241
240
241
238
241
242
243
247
242
243
242
239
239
241
238
244
248
246
245
239
237
236
235
240
242
243
245
246
244
244
241
240
242
237
242
243
243
245
247
243
241
239
237
240
243
240
244
245
244
244
241
241
239
237
241
244
242
244
245
242
241
240
239
243
240
247
246
241
241
240
234
237
238
239
244
245
247
245
242
242
243
238
239
241
241
243
244
243
243
237
240
241
241
241
245
242
245
245
244
242
244
237
238
240
241
246
244
244
242
238
240
241
238
241
245
245
246
243
239
239
233
239
243
242
243
247
243
244
244
246
243
241
241
240
241
243
246
242
242
241
238
241
240
243
242
240
244
243
239
239
240
238
240
243
243
246
242
243
239
235
237
241
240
243
242
241
244
244
239
239
239
238
241
242
244
243
240
243
242
239
240
242
240
242
244
243
244
238
241
240
239
240
243
241
245
246
243
244
240
239
239
238
243
248
243
243
243
240
244
245
247
246
236
239
240
238
238
239
235
240
241
241
243
241
245
246
248
246
245
241
240
237
236
240
242
242
242
243
240
241
242
242
245
241
244
241
237
237
239
238
242
244
243
247
243
244
241
239
239
242
238
241
244
244
246
246
242
237
234
238
241
240
244
247
244
243
241
239
238
243
238
242
241
245
246
245
247
243
242
241
241
239
240
245
242
245
243
243
240
241
243
242
240
243
240
241
244
242
243
242
243
244
241
244
246
241
246
245
240
241
241
245
242
243
244
242
241
241
243
240
242
245
244
246
243
241
237
233
238
237
236
239
245
246
252
249
241
238
239
235
239
241
247
247
246
245
243
240
240
241
237
240
243
244
247
245
243
239
235
239
239
239
243
245
243
243
243
241
242
236
240
240
240
242
245
243
247
247
242
239
235
237
239
240
245
246
244
243
243
239
241
242
243
245
244
242
242
243
241
241
236
240
240
240
244
247
242
241
241
240
244
242
244
245
242
242
240
240
244
242
242
248
248
247
245
238
238
237
238
240
245
243
245
246
245
244
239
239
239
238
244
246
242
243
243
240
240
240
244
242
238
242
243
242
243
243
237
238
239
239
243
247
243
245
245
247
243
239
239
241
242
245
248
241
241
240
238
242
241
244
244
244
245
245
241
240
241
238
241
242
243
247
242
243
242
239
239
241
238
244
248
246
245
239
237
236
235
240
242
243
245
246
244
244
241
240
242
237
242
243
243
245
247
243
241
239
237
240
243
240
244
245
244
244
241
241
239
237
241
244
242
244
245
242
241
240
239
243
240
247
246
241
241
240
234
237
238
239
244
245
247
245
242
242
243
238
239
241
241
243
244
243
243
237
240
241
241
241
245
242
245
245
244
242
244
237
238
240
241
246
244
244
242
238
240
241
238
241
245
245
246
243
239
239
233
239
243
242
243
247
243
244
244
246
243
241
241
240
241
243
246
242
242
241
238
241
240
243
242
240
244
243
239
239
240
238
240
243
243
246
242
243
239
235
237
241
240
243
242
241
244
244
239
239
239
238
241
242
244
243
240
243
242
239
240
242
240
242
244
243
244
238
241
240
239
240
243
241
245
246
243
244
240
239
239
238
243
248
243
243
243
240
244
245
247
246
236
239
240
238
238
239
235
240
241
241
243
241
245
246
248
246
245
241
240
237
236
240
242
242
242
243
240
241
242
242
245
241
244
241
237
237
239
238
242
244
243
247
243
244
241
239
239
242
238
241
244
244
246
246
242
237
234
238
241
240
244
247
244
243
241
239
238
243
240
238
242
241
245
246
245
247
243
242
241
241
239
240
245
242
245
243
243
240
241
243
242
240
243
240
241
244
242
243
242
243
244
241
244
246
241
246
245
240
241
241
245
242
243
244
242
241
241
243
240
242
245
244
246
243
241
237
233
238
237
236
239
245
246
252
249
241
238
239
235
239
241
247
247
246
245
243
240
240
241
237
240
243
244
247
245
243
239
235
239
239
239
243
245
243
243
243
241
242
236
240
240
240
242
245
243
247
247
242
239
235
237
239
240
245
246
244
243
243
239
241
242
243
245
244
242
242
243
241
241
236
240
240
240
244
247
242
241
241
240
244
242
244
245
242
242
240
240
244
242
242
248
248
247
245
238
238
237
238
240
245
243
245
246
245
244
239
239
239
238
244
246
242
243
243
240
240
240
244
242
238
242
243
242
243
243
237
238
239
239
243
247
243
245
245
247
243
239
239
241
242
245
248
241
241
240
238
242
241
244
244
244
245
245
241
240
241
238
241
242
243
247
242
243
242
239
239
241
238
244
248
246
245
239
237
236
235
240
242
243
245
246
244
244
241
240
242
237
242
243
243
245
247
243
241
239
237
240
243
240
244
245
244
244
241
241
239
237
241
244
242
244
245
242
241
240
239
243
240
247
246
241
241
240
234
237
238
239
244
245
247
245
242
242
243
238
239
241
241
243
244
243
243
237
240
241
241
241
245
242
245
245
244
242
244
237
238
240
241
246
244
244
242
238
240
241
238
241
245
245
246
243
239
239
233
239
243
242
243
247
243
244
244
246
243
241
241
240
241
243
246
242
242
241
238
241
240
243
242
240
244
243
239
239
240
238
240
243
243
246
242
243
239
235
237
241
240
243
242
241
244
244
239
239
239
238
241
242
244
243
240
243
242
239
240
242
240
242
244
243
244
238
241
240
239
240
243
241
245
246
243
244
240
239
239
238
243
248
243
243
243
240
244
245
247
246
236
239
240
238
238
239
235
240
241
241
243
241
245
246
248
246
245
241
240
237
236
240
242
242
242
243
240
241
242
242
245
241
244
241
237
237
239
238
242
244
243
247
243
244
241
239
239
242
238
241
244
244
246
246
242
237
234
238
241
240
244
247
244
243
241
239
238
243
240
240
238
242
241
245
246
245
247
243
242
241
241
239
240
245
242
245
243
243
240
241
243
242
240
243
240
241
244
242
243
242
243
244
241
244
246
241
246
245
240
241
241
245
242
243
244
242
241
241
243
240
242
245
244
246
243
241
237
233
238
237
236
239
245
246
252
249
241
238
239
235
239
241
247
247
246
245
243
240
240
241
237
240
243
244
247
245
243
239
235
239
239
239
243
245
243
243
243
241
242
236
240
240
240
242
245
243
247
247
242
239
235
237
239
240
245
246
244
243
243
239
241
242
243
245
244
242
242
243
241
241
236
240
240
240
244
247
242
241
241
240
244
242
244
245
242
242
240
240
244
242
242
248
248
247
245
238
238
237
238
240
245
243
245
246
245
244
239
239
239
238
244
246
242
243
243
240
240
240
244
242
238
242
243
242
243
243
237
238
239
239
243
247
243
245
245
247
243
239
239
241
242
245
248
241
241
240
238
242
241
244
244
244
245
245
241
240
241
238
241
242
243
247
242
243
242
239
239
241
238
244
248
246
245
239
237
236
235
240
242
243
245
246
244
244
241
240
242
237
242
243
243
245
247
243
241
239
237
240
243
240
244
245
244
244
241
241
239
237
241
244
242
244
245
242
241
240
239
243
240
247
246
241
241
240
234
237
238
239
244
245
247
245
242
242
243
238
239
241
241
243
244
243
243
237
240
241
241
241
245
242
245
245
244
242
244
237
238
240
241
246
244
244
242
238
240
241
238
241
245
245
246
243
239
239
233
239
243
242
243
247
243
244
244
246
243
241
241
240
241
243
246
242
242
241
238
241
240
243
242
240
244
243
239
239
240
238
240
243
243
246
242
243
239
235
237
241
240
243
242
241
244
244
239
239
239
238
241
242
244
243
240
243
242
239
240
242
240
242
244
243
244
238
241
240
239
240
243
241
245
246
243
244
240
239
239
238
243
248
243
243
243
240
244
245
247
246
236
239
240
238
238
239
235
240
241
241
243
241
245
246
248
246
245
241
240
237
236
240
242
242
242
243
240
241
242
242
245
241
244
241
237
237
239
238
242
244
243
247
243
244
241
239
239
242
238
241
244
244
246
246
242
237
234
238
241
240
244
247
244
243
241
239
238
243
240
240
243
238
242
241
245
246
245
247
243
242
241
241
239
240
245
242
245
243
243
240
241
243
242
240
243
240
241
244
242
243
242
243
244
241
244
246
241
246
245
240
241
241
245
242
243
244
242
241
241
243
240
242
245
244
246
243
241
237
233
238
237
236
239
245
246
252
249
241
238
239
235
239
241
247
247
246
245
243
240
240
241
237
240
243
244
247
245
243
239
235
239
239
239
243
245
243
243
243
241
242
236
240
240
240
242
245
243
247
247
242
239
235
237
239
240
245
246
244
243
243
239
241
242
243
245
244
242
242
243
241
241
236
240
240
240
244
247
242
241
241
240
244
242
244
245
242
242
240
240
244
242
242
248
248
247
245
238
238
237
238
240
245
243
245
246
245
244
239
239
239
238
244
246
242
243
243
240
240
240
244
242
238
242
243
242
243
243
237
238
239
239
243
247
243
245
245
247
243
239
239
241
242
245
248
241
241
240
238
242
241
244
244
244
245
245
241
240
241
238
241
242
243
247
242
243
242
239
239
241
238
244
248
246
245
239
237
236
235
240
242
243
245
246
244
244
241
240
242
237
242
243
243
245
247
243
241
239
237
240
243
240
244
245
244
244
241
241
239
237
241
244
242
244
245
242
241
240
239
243
240
247
246
241
241
240
234
237
238
239
244
245
247
245
242
242
243
238
239
241
241
243
244
243
243
237
240
241
241
241
245
242
245
245
244
242
244
237
238
240
241
246
244
244
242
238
240
241
238
241
245
245
246
243
239
239
233
239
243
242
243
247
243
244
244
246
243
241
241
240
241
243
246
242
242
241
238
241
240
243
242
240
244
243
239
239
240
238
240
243
243
246
242
243
239
235
237
241
240
243
242
241
244
244
239
239
239
238
241
242
244
243
240
243
242
239
240
242
240
242
244
243
244
238
241
240
239
240
243
241
245
246
243
244
240
239
239
238
243
248
243
243
243
240
244
245
247
246
236
239
240
238
238
239
235
240
241
241
243
241
245
246
248
246
245
241
240
237
236
240
242
242
242
243
240
241
242
242
245
241
244
241
237
237
239
238
242
244
243
247
243
244
241
239
239
242
238
241
244
244
246
246
242
237
234
238
241
240
244
247
244
243
241
239
238
243
240
240
243
242
238
242
241
245
246
245
247
243
242
241
241
239
240
245
242
245
243
243
240
241
243
242
240
243
240
241
244
242
243
242
243
244
241
244
246
241
246
245
240
241
241
245
242
243
244
242
241
241
243
240
242
245
244
246
243
241
237
233
238
237
236
239
245
246
252
249
241
238
239
235
239
241
247
247
246
245
243
240
240
241
237
240
243
244
247
245
243
239
235
239
239
239
243
245
243
243
243
241
242
236
240
240
240
242
245
243
247
247
242
239
235
237
239
240
245
246
244
243
243
239
241
242
243
245
244
242
242
243
241
241
236
240
240
240
244
247
242
241
241
240
244
242
244
245
242
242
240
240
244
242
242
248
248
247
245
238
238
237
238
240
245
243
245
246
245
244
239
239
239
238
244
246
242
243
243
240
240
240
244
242
238
242
243
242
243
243
237
238
239
239
243
247
243
245
245
247
243
239
239
241
242
245
248
241
241
240
238
242
241
244
244
244
245
245
241
240
241
238
241
242
243
247
242
243
242
239
239
241
238
244
248
246
245
239
237
236
235
240
242
243
245
246
244
244
241
240
242
237
242
243
243
245
247
243
241
239
237
240
243
240
244
245
244
244
241
241
239
237
241
244
242
244
245
242
241
240
239
243
240
247
246
241
241
240
234
237
238
239
244
245
247
245
242
242
243
238
239
241
241
243
244
243
243
237
240
241
241
241
245
242
245
245
244
242
244
237
238
240
241
246
244
244
242
238
240
241
238
241
245
245
246
243
239
239
233
239
243
242
243
247
243
244
244
246
243
241
241
240
241
243
246
242
242
241
238
241
240
243
242
240
244
243
239
239
240
238
240
243
243
246
242
243
239
235
237
241
240
243
242
241
244
244
239
239
239
238
241
242
244
243
240
243
242
239
240
242
240
242
244
243
244
238
241
240
239
240
243
241
245
246
243
244
240
239
239
238
243
248
243
243
243
240
244
245
247
246
236
239
240
238
238
239
235
240
241
241
243
241
245
246
248
246
245
241
240
237
236
240
242
242
242
243
240
241
242
242
245
241
244
241
237
237
239
238
242
244
243
247
243
244
241
239
239
242
238
241
244
244
246
246
242
237
234
238
241
240
244
247
244
243
241
239
238
243
240
240
243
242
244
248
245
243
237
235
236
237
240
247
243
242
242
241
243
244
243
242
249
245
243
242
242
243
239
239
240
239
240
241
243
243
243
244
243
240
240
242
243
245
244
243
240
240
239
241
243
241
244
240
243
241
242
242
240
239
243
242
243
246
242
247
245
241
238
240
237
245
244
243
246
243
243
240
236
238
242
240
245
247
244
241
240
239
237
234
240
242
241
243
245
241
